1:18:57.467766,N,103:55:1.116943,E,40.373375, 234706.0,141217,0.000000,0,-10
1:18:56.965656,N,103:55:0.677490,E,9.556991, 234707.0,141217,0.000000,11,-10
1:18:56.849785,N,103:55:0.650024,E,5.002114, 234708.0,141217,0.000000,9,-10
1:18:56.835194,N,103:55:0.704956,E,4.635109, 234709.0,141217,0.000000,0,210098836
1:18:56.809444,N,103:55:0.787354,E,4.287280, 234711.0,141217,0.000000,0,210098836
1:18:56.788414,N,103:55:0.814819,E,4.291673, 234712.0,141217,0.000000,0,210098836
1:18:56.780262,N,103:55:0.814819,E,4.389919, 234713.0,141217,0.000000,0,210098836
1:18:56.769531,N,103:55:0.814819,E,4.816639, 234714.0,141217,0.000000,0,210098836
1:18:56.751511,N,103:55:0.814819,E,5.643699, 234715.0,141217,0.000000,0,210098836
1:18:56.727047,N,103:55:0.814819,E,6.475964, 234716.0,141217,0.000000,0,210098836
1:18:56.704731,N,103:55:0.814819,E,7.380548, 234717.0,141217,0.000000,0,210098836
1:18:56.693146,N,103:55:0.787354,E,8.545511, 234718.0,141217,0.000000,0,210098836
1:18:56.687134,N,103:55:0.787354,E,8.773160, 234719.0,141217,0.000000,0,210098836
1:18:56.704731,N,103:55:0.787354,E,9.495550, 234720.0,141217,0.000000,0,210098836
1:18:56.730480,N,103:55:0.759888,E,10.017794, 234721.0,141217,0.000000,0,210098836
1:18:56.760948,N,103:55:0.732422,E,10.233838, 234722.0,141217,0.000000,0,210098836
1:18:56.795280,N,103:55:0.704956,E,10.707593, 234723.0,141217,0.000000,0,210098836
1:18:56.824036,N,103:55:0.677490,E,11.219325, 234724.0,141217,0.000000,0,210098836
1:18:56.843777,N,103:55:0.677490,E,11.964643, 234725.0,141217,0.000000,0,210098836
1:18:56.863945,N,103:55:0.677490,E,12.118267, 234726.0,141217,0.000000,0,210098836
1:18:56.884544,N,103:55:0.650024,E,12.833733, 234727.0,141217,0.000000,0,210098836
1:18:56.904716,N,103:55:0.650024,E,13.276399, 234728.0,141217,0.000000,0,210098836
1:18:56.904716,N,103:55:0.650024,E,13.554596, 234729.0,141217,0.000000,0,210098836
1:18:56.904716,N,103:55:0.650024,E,13.799932, 234730.0,141217,0.000000,0,210098836
1:18:56.904716,N,103:55:0.650024,E,14.269794, 234731.0,141217,0.000000,0,210098836
1:18:56.904716,N,103:55:0.650024,E,14.729184, 234732.0,141217,0.000000,0,210098836
1:18:56.904716,N,103:55:0.650024,E,15.055356, 234733.0,141217,0.000000,0,210098836
1:18:56.904716,N,103:55:0.650024,E,15.284914, 234734.0,141217,0.000000,0,210098836
1:18:56.904716,N,103:55:0.650024,E,15.422003, 234735.0,141217,0.000000,0,210098836
1:18:56.904716,N,103:55:0.650024,E,15.393276, 234736.0,141217,0.000000,0,210098836
1:18:56.904716,N,103:55:0.650024,E,15.388688, 234737.0,141217,0.000000,0,210098836
1:18:56.904716,N,103:55:0.650024,E,15.379304, 234738.0,141217,0.000000,0,210098836
1:18:56.904716,N,103:55:0.650024,E,15.377869, 234739.0,141217,0.000000,0,210098836
1:18:56.904716,N,103:55:0.650024,E,15.375573, 234740.0,141217,0.000000,0,210098836
1:18:56.904716,N,103:55:0.650024,E,15.372525, 234741.0,141217,0.000000,0,210098836
1:18:56.904716,N,103:55:0.650024,E,15.368689, 234742.0,141217,0.000000,0,210098836
1:18:56.904716,N,103:55:0.650024,E,15.364707, 234743.0,141217,0.000000,0,210098836
1:18:56.904716,N,103:55:0.650024,E,15.360378, 234744.0,141217,0.000000,0,210098836
1:18:56.904716,N,103:55:0.650024,E,15.355676, 234745.0,141217,0.000000,0,210098836
1:18:56.904716,N,103:55:0.650024,E,15.351101, 234746.0,141217,0.000000,0,210098836
1:18:56.904716,N,103:55:0.650024,E,15.347567, 234747.0,141217,0.000000,0,210098836
1:18:56.904716,N,103:55:0.650024,E,15.343807, 234748.0,141217,0.000000,0,210098836
1:18:56.904716,N,103:55:0.650024,E,15.338926, 234749.0,141217,0.000000,0,210098836
1:18:56.904716,N,103:55:0.650024,E,15.333864, 234750.0,141217,0.000000,0,210098836
1:18:56.904716,N,103:55:0.650024,E,15.329002, 234751.0,141217,0.000000,0,210098836
1:18:56.904716,N,103:55:0.650024,E,15.324500, 234752.0,141217,0.000000,0,210098836
1:18:56.904716,N,103:55:0.650024,E,15.320330, 234753.0,141217,0.000000,0,210098836
1:18:56.904716,N,103:55:0.650024,E,15.316350, 234754.0,141217,0.000000,0,210098836
1:18:56.904716,N,103:55:0.650024,E,15.311767, 234755.0,141217,0.000000,0,210098836
1:18:56.904716,N,103:55:0.650024,E,15.306760, 234756.0,141217,0.000000,0,210098836
1:18:56.904716,N,103:55:0.650024,E,15.302250, 234757.0,141217,0.000000,0,210098836
1:18:56.904716,N,103:55:0.650024,E,15.258615, 234758.0,141217,0.000000,0,210098836
1:18:56.904716,N,103:55:0.650024,E,15.254788, 234759.0,141217,0.000000,0,210098836
1:18:56.904716,N,103:55:0.650024,E,15.251384, 234800.0,141217,0.000000,0,210098836
1:18:56.904716,N,103:55:0.650024,E,15.248244, 234801.0,141217,0.000000,0,210098836
1:18:56.904716,N,103:55:0.650024,E,15.245870, 234802.0,141217,0.000000,0,210098836
1:18:56.904716,N,103:55:0.650024,E,15.243889, 234803.0,141217,0.000000,0,210098836
1:18:56.904716,N,103:55:0.650024,E,15.230098, 234804.0,141217,0.000000,0,210098836
1:18:56.904716,N,103:55:0.650024,E,15.230153, 234805.0,141217,0.000000,0,210098836
1:18:56.904716,N,103:55:0.650024,E,15.231805, 234806.0,141217,0.000000,0,210098836
1:18:56.904716,N,103:55:0.650024,E,15.234883, 234807.0,141217,0.000000,0,210098836
1:18:56.904716,N,103:55:0.650024,E,15.275593, 234808.0,141217,0.000000,0,210098836
1:18:56.904716,N,103:55:0.650024,E,15.280936, 234809.0,141217,0.000000,0,210098836
1:18:56.904716,N,103:55:0.650024,E,15.286901, 234810.0,141217,0.000000,0,210098836
1:18:56.904716,N,103:55:0.650024,E,15.292994, 234811.0,141217,0.000000,0,210098836
1:18:56.904716,N,103:55:0.650024,E,15.299550, 234812.0,141217,0.000000,0,210098836
1:18:56.904716,N,103:55:0.650024,E,15.353886, 234813.0,141217,0.000000,0,210098836
1:18:56.904716,N,103:55:0.650024,E,15.358315, 234814.0,141217,0.000000,0,210098836
1:18:56.904716,N,103:55:0.650024,E,15.360620, 234815.0,141217,0.000000,0,210098836
1:18:56.904716,N,103:55:0.650024,E,15.360691, 234816.0,141217,0.000000,0,210098836
1:18:56.904716,N,103:55:0.650024,E,15.357883, 234817.0,141217,0.000000,0,210098836
1:18:56.904716,N,103:55:0.650024,E,15.351346, 234818.0,141217,0.000000,0,210098836
1:18:56.904716,N,103:55:0.650024,E,15.341772, 234819.0,141217,0.000000,0,210098836
1:18:56.904716,N,103:55:0.650024,E,15.329908, 234820.0,141217,0.000000,0,210098836
1:18:56.904716,N,103:55:0.650024,E,15.316352, 234821.0,141217,0.000000,0,210098836
1:18:56.904716,N,103:55:0.650024,E,15.300714, 234822.0,141217,0.000000,0,210098836
1:18:56.904716,N,103:55:0.650024,E,15.283724, 234823.0,141217,0.000000,0,210098836
1:18:56.904716,N,103:55:0.650024,E,15.266150, 234824.0,141217,0.000000,0,210098836
1:18:56.904716,N,103:55:0.650024,E,15.247781, 234825.0,141217,0.000000,0,210098836
1:18:56.904716,N,103:55:0.650024,E,15.229227, 234826.0,141217,0.000000,0,210098836
1:18:56.904716,N,103:55:0.650024,E,15.210033, 234827.0,141217,0.000000,0,210098836
1:18:56.904716,N,103:55:0.650024,E,15.191017, 234828.0,141217,0.000000,0,210098836
1:18:56.904716,N,103:55:0.650024,E,15.171858, 234829.0,141217,0.000000,0,210098836
1:18:56.904716,N,103:55:0.650024,E,15.152573, 234830.0,141217,0.000000,0,210098836
1:18:56.904716,N,103:55:0.650024,E,15.133145, 234831.0,141217,0.000000,0,210098836
1:18:56.904716,N,103:55:0.650024,E,15.114166, 234832.0,141217,0.000000,0,210098836
1:18:56.904716,N,103:55:0.650024,E,15.095391, 234833.0,141217,0.000000,0,210098836
1:18:56.904716,N,103:55:0.650024,E,15.076184, 234834.0,141217,0.000000,0,210098836
1:18:56.904716,N,103:55:0.650024,E,15.056761, 234835.0,141217,0.000000,0,210098836
1:18:56.904716,N,103:55:0.650024,E,15.037470, 234836.0,141217,0.000000,0,210098836
1:18:56.904716,N,103:55:0.650024,E,15.018746, 234837.0,141217,0.000000,0,210098836
1:18:56.904716,N,103:55:0.650024,E,15.000052, 234838.0,141217,0.000000,0,210098836
1:18:56.904716,N,103:55:0.650024,E,14.981914, 234839.0,141217,0.000000,0,210098836
1:18:56.904716,N,103:55:0.650024,E,14.964374, 234840.0,141217,0.000000,0,210098836
1:18:56.904716,N,103:55:0.650024,E,14.946926, 234841.0,141217,0.000000,0,210098836
1:18:56.904716,N,103:55:0.650024,E,14.930687, 234842.0,141217,0.000000,0,210098836
1:18:56.904716,N,103:55:0.650024,E,14.915534, 234843.0,141217,0.000000,0,210098836
1:18:56.904716,N,103:55:0.650024,E,14.900943, 234844.0,141217,0.000000,0,210098836
1:18:56.904716,N,103:55:0.650024,E,14.887409, 234845.0,141217,0.000000,0,210098836
1:18:56.904716,N,103:55:0.650024,E,14.758378, 234846.0,141217,0.000000,0,210098836
1:18:56.904716,N,103:55:0.650024,E,14.746427, 234847.0,141217,0.000000,0,210098836
1:18:56.904716,N,103:55:0.650024,E,14.735291, 234848.0,141217,0.000000,0,210098836
1:18:56.904716,N,103:55:0.650024,E,14.724705, 234849.0,141217,0.000000,0,210098836
1:18:56.904716,N,103:55:0.650024,E,14.715225, 234850.0,141217,0.000000,0,210098836
1:18:56.904716,N,103:55:0.650024,E,14.629445, 234851.0,141217,0.000000,0,210098836
1:18:56.904716,N,103:55:0.650024,E,14.555605, 234852.0,141217,0.000000,0,210098836
1:18:56.904716,N,103:55:0.650024,E,14.549433, 234853.0,141217,0.000000,0,210098836
1:18:56.904716,N,103:55:0.650024,E,14.543855, 234854.0,141217,0.000000,0,210098836
1:18:56.904716,N,103:55:0.650024,E,14.539083, 234855.0,141217,0.000000,0,210098836
1:18:56.904716,N,103:55:0.650024,E,14.535206, 234856.0,141217,0.000000,0,210098836
1:18:56.904716,N,103:55:0.650024,E,14.532084, 234857.0,141217,0.000000,0,210098836
1:18:56.904716,N,103:55:0.650024,E,14.528895, 234858.0,141217,0.000000,0,210098836
1:18:56.904716,N,103:55:0.650024,E,14.526067, 234859.0,141217,0.000000,0,210098836
1:18:56.904716,N,103:55:0.650024,E,14.524131, 234900.0,141217,0.000000,0,210098836
1:18:56.904716,N,103:55:0.650024,E,14.521856, 234901.0,141217,0.000000,0,210098836
1:18:56.904716,N,103:55:0.650024,E,14.519329, 234902.0,141217,0.000000,0,210098836
1:18:56.904716,N,103:55:0.650024,E,14.516924, 234903.0,141217,0.000000,0,210098836
1:18:56.904716,N,103:55:0.650024,E,14.514447, 234904.0,141217,0.000000,0,210098836
1:18:56.904716,N,103:55:0.650024,E,14.512289, 234905.0,141217,0.000000,0,210098836
1:18:56.904716,N,103:55:0.650024,E,14.510271, 234906.0,141217,0.000000,0,210098836
1:18:56.904716,N,103:55:0.650024,E,14.508121, 234907.0,141217,0.000000,0,210098836
1:18:56.904716,N,103:55:0.650024,E,14.506073, 234908.0,141217,0.000000,0,210098836
1:18:56.904716,N,103:55:0.650024,E,14.503845, 234909.0,141217,0.000000,0,210098836
1:18:56.904716,N,103:55:0.650024,E,14.501242, 234910.0,141217,0.000000,0,210098836
1:18:56.904716,N,103:55:0.650024,E,14.479488, 234911.0,141217,0.000000,0,210098836
1:18:56.904716,N,103:55:0.650024,E,14.477636, 234912.0,141217,0.000000,0,210098836
1:18:56.904716,N,103:55:0.650024,E,14.475430, 234913.0,141217,0.000000,0,210098836
1:18:56.904716,N,103:55:0.650024,E,14.450528, 234914.0,141217,0.000000,0,210098836
1:18:56.904716,N,103:55:0.650024,E,14.447604, 234915.0,141217,0.000000,0,210098836
1:18:56.904716,N,103:55:0.650024,E,14.413251, 234916.0,141217,0.000000,0,210098836
1:18:56.904716,N,103:55:0.650024,E,14.408307, 234917.0,141217,0.000000,0,210098836
1:18:56.904716,N,103:55:0.650024,E,14.403119, 234918.0,141217,0.000000,0,210098836
1:18:56.904716,N,103:55:0.650024,E,14.397868, 234919.0,141217,0.000000,0,210098836
1:18:56.904716,N,103:55:0.650024,E,14.392148, 234920.0,141217,0.000000,0,210098836
1:18:56.904716,N,103:55:0.650024,E,14.386041, 234921.0,141217,0.000000,0,210098836
1:18:56.904716,N,103:55:0.650024,E,14.379527, 234922.0,141217,0.000000,0,210098836
1:18:56.904716,N,103:55:0.650024,E,14.371937, 234923.0,141217,0.000000,0,210098836
1:18:56.904716,N,103:55:0.650024,E,14.362969, 234924.0,141217,0.000000,0,210098836
1:18:56.904716,N,103:55:0.650024,E,14.353066, 234925.0,141217,0.000000,0,210098836
1:18:56.904716,N,103:55:0.650024,E,14.341802, 234926.0,141217,0.000000,0,210098836
1:18:56.904716,N,103:55:0.650024,E,14.329802, 234927.0,141217,0.000000,0,210098836
1:18:56.904716,N,103:55:0.650024,E,14.317398, 234928.0,141217,0.000000,0,210098836
1:18:56.904716,N,103:55:0.650024,E,14.303874, 234929.0,141217,0.000000,0,210098836
1:18:56.904716,N,103:55:0.650024,E,14.288733, 234930.0,141217,0.000000,0,210098836
1:18:56.904716,N,103:55:0.650024,E,14.272115, 234931.0,141217,0.000000,0,210098836
1:18:56.904716,N,103:55:0.650024,E,14.256412, 234932.0,141217,0.000000,0,210098836
1:18:56.904716,N,103:55:0.650024,E,14.104617, 234933.0,141217,0.000000,0,210098836
1:18:56.904716,N,103:55:0.650024,E,14.089919, 234934.0,141217,0.000000,0,210098836
1:18:56.904716,N,103:55:0.650024,E,14.075977, 234935.0,141217,0.000000,0,210098836
1:18:56.904716,N,103:55:0.650024,E,14.062255, 234936.0,141217,0.000000,0,210098836
1:18:56.904716,N,103:55:0.650024,E,14.048317, 234937.0,141217,0.000000,0,210098836
1:18:56.904716,N,103:55:0.650024,E,14.034089, 234938.0,141217,0.000000,0,210098836
1:18:56.904716,N,103:55:0.650024,E,14.019819, 234939.0,141217,0.000000,0,210098836
1:18:56.904716,N,103:55:0.650024,E,14.005438, 234940.0,141217,0.000000,0,210098836
1:18:56.904716,N,103:55:0.650024,E,13.989702, 234941.0,141217,0.000000,0,210098836
1:18:56.904716,N,103:55:0.650024,E,13.829500, 234942.0,141217,0.000000,0,210098836
1:18:56.904716,N,103:55:0.650024,E,13.813152, 234943.0,141217,0.000000,0,210098836
1:18:56.904716,N,103:55:0.650024,E,13.796492, 234944.0,141217,0.000000,0,210098836
1:18:56.904716,N,103:55:0.650024,E,13.625125, 234945.0,141217,0.000000,0,210098836
1:18:56.904716,N,103:55:0.650024,E,13.459279, 234946.0,141217,0.000000,0,210098836
1:18:56.904716,N,103:55:0.650024,E,13.443800, 234947.0,141217,0.000000,0,210098836
1:18:56.904716,N,103:55:0.650024,E,13.428212, 234948.0,141217,0.000000,0,210098836
1:18:56.904716,N,103:55:0.650024,E,13.412848, 234949.0,141217,0.000000,0,210098836
1:18:56.904716,N,103:55:0.650024,E,13.262425, 234950.0,141217,0.000000,0,210098836
1:18:56.904716,N,103:55:0.650024,E,13.247954, 234951.0,141217,0.000000,0,210098836
1:18:56.904716,N,103:55:0.650024,E,13.108804, 234952.0,141217,0.000000,0,210098836
1:18:56.904716,N,103:55:0.650024,E,12.970950, 234953.0,141217,0.000000,0,210098836
1:18:56.904716,N,103:55:0.650024,E,12.840286, 234954.0,141217,0.000000,0,210098836
1:18:56.893127,N,103:55:0.869751,E,12.827781, 234955.0,141217,0.000000,3,-10
1:18:56.893127,N,103:55:0.869751,E,12.698416, 234956.0,141217,0.000000,0,210098836
1:18:56.893127,N,103:55:0.869751,E,12.577158, 234957.0,141217,0.000000,0,210098836
1:18:56.893127,N,103:55:0.869751,E,12.564909, 234958.0,141217,0.000000,0,210098836
1:18:56.893127,N,103:55:0.869751,E,12.442206, 234959.0,141217,0.000000,0,210098836
1:18:56.893127,N,103:55:0.869751,E,12.429392, 235000.0,141217,0.000000,0,210098836
1:18:56.893127,N,103:55:0.869751,E,12.415341, 235001.0,141217,0.000000,0,210098836
1:18:56.893127,N,103:55:0.869751,E,12.259356, 235002.0,141217,0.000000,0,210098836
1:18:56.893127,N,103:55:0.869751,E,12.242684, 235003.0,141217,0.000000,0,210098836
1:18:56.893127,N,103:55:0.869751,E,12.066688, 235004.0,141217,0.000000,0,210098836
1:18:56.893127,N,103:55:0.869751,E,12.047383, 235005.0,141217,0.000000,0,210098836
1:18:56.893127,N,103:55:0.869751,E,12.026640, 235006.0,141217,0.000000,0,210098836
1:18:56.893127,N,103:55:0.869751,E,12.005022, 235007.0,141217,0.000000,0,210098836
1:18:56.893127,N,103:55:0.869751,E,11.982072, 235008.0,141217,0.000000,0,210098836
1:18:56.893127,N,103:55:0.869751,E,11.957973, 235009.0,141217,0.000000,0,210098836
1:18:56.893127,N,103:55:0.869751,E,11.932527, 235010.0,141217,0.000000,0,210098836
1:18:56.893127,N,103:55:0.869751,E,11.905534, 235011.0,141217,0.000000,0,210098836
1:18:56.893127,N,103:55:0.869751,E,11.876754, 235012.0,141217,0.000000,0,210098836
1:18:56.893127,N,103:55:0.869751,E,11.846653, 235013.0,141217,0.000000,0,210098836
1:18:56.893127,N,103:55:0.869751,E,11.815157, 235014.0,141217,0.000000,0,210098836
1:18:56.893127,N,103:55:0.869751,E,11.783195, 235015.0,141217,0.000000,0,210098836
1:18:56.893127,N,103:55:0.869751,E,11.750985, 235016.0,141217,0.000000,0,210098836
1:18:56.893127,N,103:55:0.869751,E,11.718556, 235017.0,141217,0.000000,0,210098836
1:18:56.893127,N,103:55:0.869751,E,11.686565, 235018.0,141217,0.000000,0,210098836
1:18:56.893127,N,103:55:0.869751,E,11.654749, 235019.0,141217,0.000000,0,210098836
1:18:56.893127,N,103:55:0.869751,E,11.623266, 235020.0,141217,0.000000,0,210098836
1:18:56.893127,N,103:55:0.869751,E,11.592281, 235021.0,141217,0.000000,0,210098836
1:18:56.893127,N,103:55:0.869751,E,11.560947, 235022.0,141217,0.000000,0,210098836
1:18:56.893127,N,103:55:0.869751,E,11.529857, 235023.0,141217,0.000000,0,210098836
1:18:56.893127,N,103:55:0.869751,E,11.497365, 235024.0,141217,0.000000,0,210098836
1:18:56.893127,N,103:55:0.869751,E,11.463995, 235025.0,141217,0.000000,0,210098836
1:18:56.893127,N,103:55:0.869751,E,11.430085, 235026.0,141217,0.000000,0,210098836
1:18:56.893127,N,103:55:0.869751,E,11.396655, 235027.0,141217,0.000000,0,210098836
1:18:56.893127,N,103:55:0.869751,E,11.364075, 235028.0,141217,0.000000,0,210098836
1:18:56.893127,N,103:55:0.869751,E,11.331686, 235029.0,141217,0.000000,0,210098836
1:18:56.893127,N,103:55:0.869751,E,11.298231, 235030.0,141217,0.000000,0,210098836
1:18:56.893127,N,103:55:0.869751,E,11.263999, 235031.0,141217,0.000000,0,210098836
1:18:56.893127,N,103:55:0.869751,E,11.229991, 235032.0,141217,0.000000,0,210098836
1:18:56.893127,N,103:55:0.869751,E,11.197200, 235033.0,141217,0.000000,0,210098836
1:18:56.893127,N,103:55:0.869751,E,11.166455, 235034.0,141217,0.000000,0,210098836
1:18:56.893127,N,103:55:0.869751,E,11.137312, 235035.0,141217,0.000000,0,210098836
1:18:56.893127,N,103:55:0.869751,E,11.110014, 235036.0,141217,0.000000,0,210098836
1:18:56.893127,N,103:55:0.869751,E,11.083158, 235037.0,141217,0.000000,0,210098836
1:18:56.893127,N,103:55:0.869751,E,11.057497, 235038.0,141217,0.000000,0,210098836
1:18:56.893127,N,103:55:0.869751,E,11.031816, 235039.0,141217,0.000000,0,210098836
1:18:56.893127,N,103:55:0.869751,E,11.007230, 235040.0,141217,0.000000,0,210098836
1:18:56.893127,N,103:55:0.869751,E,10.983813, 235041.0,141217,0.000000,0,210098836
1:18:56.893127,N,103:55:0.869751,E,10.961864, 235042.0,141217,0.000000,0,210098836
1:18:56.893127,N,103:55:0.869751,E,10.940758, 235043.0,141217,0.000000,0,210098836
1:18:56.893127,N,103:55:0.869751,E,10.920819, 235044.0,141217,0.000000,0,210098836
1:18:56.893127,N,103:55:0.869751,E,10.901687, 235045.0,141217,0.000000,0,210098836
1:18:56.893127,N,103:55:0.869751,E,10.883327, 235046.0,141217,0.000000,0,210098836
1:18:56.893127,N,103:55:0.869751,E,10.865118, 235047.0,141217,0.000000,0,210098836
1:18:56.893127,N,103:55:0.869751,E,10.846591, 235048.0,141217,0.000000,0,210098836
1:18:56.893127,N,103:55:0.869751,E,10.653182, 235049.0,141217,0.000000,0,210098836
1:18:56.893127,N,103:55:0.869751,E,10.450239, 235050.0,141217,0.000000,0,210098836
1:18:56.893127,N,103:55:0.869751,E,10.428947, 235051.0,141217,0.000000,0,210098836
1:18:56.893127,N,103:55:0.869751,E,10.203124, 235052.0,141217,0.000000,0,210098836
1:18:56.893127,N,103:55:0.869751,E,9.975620, 235053.0,141217,0.000000,0,210098836
1:18:56.893127,N,103:55:0.869751,E,9.952294, 235054.0,141217,0.000000,0,210098836
1:18:56.893127,N,103:55:0.869751,E,9.928130, 235055.0,141217,0.000000,0,210098836
1:18:56.893127,N,103:55:0.869751,E,9.903648, 235056.0,141217,0.000000,0,210098836
1:18:56.893127,N,103:55:0.869751,E,9.649092, 235058.0,141217,0.000000,0,210098836
1:18:56.893127,N,103:55:0.869751,E,9.443980, 235059.0,141217,0.000000,0,210098836
1:18:56.893127,N,103:55:0.869751,E,9.424707, 235100.0,141217,0.000000,0,210098836
1:18:56.893127,N,103:55:0.869751,E,9.220486, 235101.0,141217,0.000000,0,210098836
1:18:56.893127,N,103:55:0.869751,E,9.237925, 235101.0,141217,0.000000,0,210098836
1:18:56.893127,N,103:55:0.869751,E,9.203133, 235102.0,141217,0.000000,0,210098836
1:18:56.893127,N,103:55:0.869751,E,9.025856, 235103.0,141217,0.000000,0,210098836
1:18:56.893127,N,103:55:0.869751,E,9.007688, 235104.0,141217,0.000000,0,210098836
1:18:56.893127,N,103:55:0.869751,E,8.967978, 235106.0,141217,0.000000,0,210098836
1:18:56.893127,N,103:55:0.869751,E,8.948179, 235107.0,141217,0.000000,0,210098836
1:18:56.893127,N,103:55:0.869751,E,8.928177, 235108.0,141217,0.000000,0,210098836
1:18:56.893127,N,103:55:0.869751,E,8.909111, 235109.0,141217,0.000000,0,210098836
1:18:56.893127,N,103:55:0.869751,E,8.890669, 235110.0,141217,0.000000,0,210098836
1:18:56.893127,N,103:55:0.869751,E,8.714646, 235111.0,141217,0.000000,0,210098836
1:18:56.893127,N,103:55:0.869751,E,8.543063, 235112.0,141217,0.000000,0,210098836
1:18:56.893127,N,103:55:0.869751,E,8.379809, 235113.0,141217,0.000000,0,210098836
1:18:56.893127,N,103:55:0.869751,E,8.364280, 235114.0,141217,0.000000,0,210098836
1:18:56.893127,N,103:55:0.869751,E,8.348838, 235115.0,141217,0.000000,0,210098836
1:18:56.893127,N,103:55:0.869751,E,8.334465, 235116.0,141217,0.000000,0,210098836
1:18:56.893127,N,103:55:0.869751,E,8.321017, 235117.0,141217,0.000000,0,210098836
1:18:56.893127,N,103:55:0.869751,E,8.308105, 235118.0,141217,0.000000,0,210098836
1:18:56.893127,N,103:55:0.869751,E,8.295304, 235119.0,141217,0.000000,0,210098836
1:18:56.893127,N,103:55:0.869751,E,8.282988, 235120.0,141217,0.000000,0,210098836
1:18:56.893127,N,103:55:0.869751,E,8.165626, 235121.0,141217,0.000000,0,210098836
1:18:56.893127,N,103:55:0.869751,E,8.154078, 235122.0,141217,0.000000,0,210098836
1:18:56.893127,N,103:55:0.869751,E,8.142230, 235123.0,141217,0.000000,0,210098836
1:18:56.893127,N,103:55:0.869751,E,8.130290, 235124.0,141217,0.000000,0,210098836
1:18:56.893127,N,103:55:0.869751,E,8.118456, 235125.0,141217,0.000000,0,210098836
1:18:56.893127,N,103:55:0.869751,E,8.106948, 235126.0,141217,0.000000,0,210098836
1:18:56.893127,N,103:55:0.869751,E,8.096227, 235127.0,141217,0.000000,0,210098836
1:18:56.893127,N,103:55:0.869751,E,8.086138, 235128.0,141217,0.000000,0,210098836
1:18:56.893127,N,103:55:0.869751,E,8.076442, 235129.0,141217,0.000000,0,210098836
1:18:56.893127,N,103:55:0.869751,E,8.067081, 235130.0,141217,0.000000,0,210098836
1:18:56.893127,N,103:55:0.869751,E,8.057711, 235131.0,141217,0.000000,0,210098836
1:18:56.893127,N,103:55:0.869751,E,8.048488, 235132.0,141217,0.000000,0,210098836
1:18:56.893127,N,103:55:0.869751,E,8.039216, 235133.0,141217,0.000000,0,210098836
1:18:56.893127,N,103:55:0.869751,E,7.939512, 235134.0,141217,0.000000,0,210098836
1:18:56.893127,N,103:55:0.869751,E,7.929435, 235135.0,141217,0.000000,0,210098836
1:18:56.893127,N,103:55:0.869751,E,7.919242, 235136.0,141217,0.000000,0,210098836
1:18:56.893127,N,103:55:0.869751,E,7.909407, 235137.0,141217,0.000000,0,210098836
1:18:56.893127,N,103:55:0.869751,E,7.900038, 235138.0,141217,0.000000,0,210098836
1:18:56.893127,N,103:55:0.869751,E,7.890484, 235139.0,141217,0.000000,0,210098836
1:18:56.893127,N,103:55:0.869751,E,7.880313, 235140.0,141217,0.000000,0,210098836
1:18:56.893127,N,103:55:0.869751,E,7.869305, 235141.0,141217,0.000000,0,210098836
1:18:56.893127,N,103:55:0.869751,E,7.858166, 235142.0,141217,0.000000,0,210098836
1:18:56.893127,N,103:55:0.869751,E,7.846946, 235143.0,141217,0.000000,0,210098836
1:18:56.893127,N,103:55:0.869751,E,7.835097, 235144.0,141217,0.000000,0,210098836
1:18:56.893127,N,103:55:0.869751,E,7.822511, 235145.0,141217,0.000000,0,210098836
1:18:56.893127,N,103:55:0.869751,E,7.809758, 235146.0,141217,0.000000,0,210098836
1:18:56.893127,N,103:55:0.869751,E,7.797670, 235147.0,141217,0.000000,0,210098836
1:18:56.893127,N,103:55:0.869751,E,7.675759, 235148.0,141217,0.000000,0,210098836
1:18:56.893127,N,103:55:0.869751,E,7.663646, 235149.0,141217,0.000000,0,210098836
1:18:56.893127,N,103:55:0.869751,E,7.651454, 235150.0,141217,0.000000,0,210098836
1:18:56.893127,N,103:55:0.869751,E,7.640512, 235151.0,141217,0.000000,0,210098836
1:18:56.893127,N,103:55:0.869751,E,7.630097, 235152.0,141217,0.000000,0,210098836
1:18:56.893127,N,103:55:0.869751,E,7.619659, 235153.0,141217,0.000000,0,210098836
1:18:56.893127,N,103:55:0.869751,E,7.609348, 235154.0,141217,0.000000,0,210098836
1:18:56.893127,N,103:55:0.869751,E,7.506455, 235155.0,141217,0.000000,0,210098836
1:18:56.893127,N,103:55:0.869751,E,7.496428, 235156.0,141217,0.000000,0,210098836
